mx,my,mz,theta,phi,time,R
0.706791942812977,0.7040373534435541,0.0691126220805844,86.03697923263667,44.88813235943669,0.0,114.66040285935115
0.7145179613813895,0.6965480422603394,0.06545920627896284,86.2467801218498,44.270377950893575,1e-12,114.27410193093053
0.7238296085896393,0.6867885407643026,0.06627365995483588,86.2000138068478,43.49583016659962,2e-12,113.80851957051803
0.7293935198632701,0.6808543072081592,0.06650192130733672,86.18690647858084,43.02871911284121,3e-12,113.5303240068365
0.7391746036983994,0.6698077221736558,0.07055863210021163,85.95392618100284,42.181495402690956,4e-12,113.04126981508003
0.7444954861429326,0.6642805803660138,0.06676662086245339,86.17170652880063,41.74112981118113,5.0000000000000005e-12,112.77522569285337
0.7512981624211252,0.6563837994374548,0.06863948556546332,86.06415248871825,41.14261330818818,6e-12,112.43509187894374
0.7581998493739479,0.6487553484896307,0.06518808338508264,86.2623475694953,40.55202205470129,7e-12,112.0900075313026
0.7636837130758714,0.6426283500216521,0.06177370096650601,86.45837274045256,40.080106297793634,8e-12,111.81581434620644
0.7717438010890145,0.6326833543986663,0.06421276000555853,86.31834681845308,39.345245749059,9e-12,111.41280994554927
0.7791554780146166,0.6240046560825018,0.05945527955676445,86.59145323414023,38.69029796815812,1.0000000000000001e-11,111.04222609926917
0.784099106646181,0.6181408505549979,0.05559208425490934,86.81316528349957,38.250313493128246,1.1e-11,110.79504466769095
0.7889487529473648,0.6119587368563109,0.055374810230161955,86.82563337389769,37.79942660025364,1.2e-11,110.55256235263177
0.796414854512189,0.6021956387601859,0.05553190227734306,86.81661879166104,37.09413312282235,1.3e-11,110.17925727439055
0.8047440021021384,0.5911023333708028,0.05463627516793065,86.86801247683984,36.29810832525706,1.4e-11,109.76279989489308
0.8095420764666756,0.5845315797316429,0.05444684312660104,86.87888231306557,35.83124760086039,1.5e-11,109.52289617666622
0.8150445109217788,0.5769795134258703,0.0528874872075098,86.96835577720844,35.29512215918287,1.6e-11,109.24777445391106
0.8186274991063107,0.5719079440495352,0.052633841204883576,86.98290889246857,34.938844672592346,1.7e-11,109.06862504468447
0.8234309217940152,0.5652619975194045,0.04940031572602902,87.16841791028573,34.46849502334302,1.8e-11,108.82845391029925
0.8279473619366552,0.5587455333198766,0.048027022156491496,87.24719536791427,34.01369525021093,1.9e-11,108.60263190316724
0.8326568214842801,0.5517365879108671,0.04763774969674152,87.26952459564296,33.52932417527961,2.0000000000000002e-11,108.367158925786
0.8375592667594624,0.5440412401628253,0.05013585211649156,87.1262224899562,33.00596081754543,2.1000000000000002e-11,108.12203666202689
0.842177635076074,0.536816775982061,0.0506416824552347,87.09720368289045,32.51405339817662,2.2e-11,107.8911182461963
0.8493911129152609,0.5258855556266386,0.04448729800556345,87.45022405828044,31.76299162149967,2.3e-11,107.53044435423695
0.8537004783159717,0.5189801550524119,0.043070778781624845,87.53146252658198,31.2961841033275,2.4e-11,107.31497608420142
0.8575026285750329,0.5125502826229164,0.04451347852142739,87.4487225377602,30.86779285076027,2.5e-11,107.12486857124836
0.8611199387089576,0.5066875204418181,0.04171579780374966,87.60916708027503,30.472780223424678,2.6e-11,106.94400306455212
0.8644968890623269,0.5007467857140292,0.04356357880875913,87.50320063715218,30.08092077858269,2.7e-11,106.77515554688365
0.8669217934245941,0.4962439858641201,0.04678151963303659,87.31863772706275,29.787715501358882,2.8e-11,106.6539103287703
0.8726157652273475,0.48612898068009186,0.047120488321172195,87.29919480997677,29.121915915051922,2.9e-11,106.36921173863263
0.8770028609862046,0.47799405065736794,0.04886378370709567,87.19919610199827,28.59176878959312,3e-11,106.14985695068977
0.8790242433180004,0.4743963018051798,0.0475870622415943,87.27243207030435,28.355076156468154,3.1e-11,106.04878783409998
0.8847161514385857,0.46407468206813474,0.04372666059805308,87.49384782658555,27.67909567392517,3.2e-11,105.76419242807071
0.8881162049251615,0.4572413882028083,0.04668960766270343,87.32390965570607,27.241407038203832,3.3e-11,105.59418975374193
0.8926922202060894,0.4482372367098236,0.04673306763164773,87.32141686184788,26.66207160864031,3.4e-11,105.36538898969553
0.8969574892310223,0.43991633325382906,0.04405544516727339,87.47499168709433,26.12582336190601,3.5e-11,105.15212553844889
0.899216423389599,0.43553836068329616,0.04142656490374874,87.62575324279403,25.843376298840795,3.6e-11,105.03917883052006
0.9017540277899454,0.43027258131546764,0.041293814703108556,87.63336578306713,25.508176469945486,3.7e-11,104.91229861050273
0.9047575824833012,0.4238955408278365,0.04154861496185538,87.61875426358479,25.10395290313883,3.8e-11,104.76212087583494
0.9080667499107448,0.41696265937580634,0.039457805220161575,87.73864724269575,24.663462108976105,3.9e-11,104.59666250446276
0.9100699728998872,0.4129961348223182,0.03473956027102366,88.00916924260248,24.40888017289615,4.0000000000000004e-11,104.49650135500563
0.9127766656998648,0.4066544919136838,0.038352089385857796,87.80204809636416,24.01362619709118,4.1e-11,104.36116671500676
0.9160633165773584,0.3987830080866026,0.042427732471714316,87.56834007906258,23.524577985982816,4.2000000000000004e-11,104.19683417113208
0.9195471997194834,0.391135413618441,0.03802677611351789,87.82070078077759,23.042792602765374,4.3e-11,104.02264001402582
0.9223146811772315,0.3846945834623255,0.0366838702932219,87.89769736242367,22.640865186049027,4.4e-11,103.88426594113842
0.9247500105033793,0.37898449184790783,0.0347587832465861,88.00806718166007,22.28498215032702,4.5e-11,103.76249947483103
0.9266940154981316,0.3743045346819526,0.03367962227335317,88.06993478652042,21.994463975670023,4.6e-11,103.66529922509342
0.9289889761965614,0.36832511363848947,0.036277992894566805,87.92096791458688,21.627312457993877,4.7e-11,103.55055119017193
0.9301994206212502,0.3652438796112197,0.036413545315381074,87.91319619799222,21.437511499286106,4.8e-11,103.4900289689375
0.9323752136661669,0.3598636564459675,0.03427257956892413,88.03594120921174,21.104813922964617,4.9e-11,103.38123931669165
0.9359835482551808,0.3502109757694839,0.035875755688593386,87.94402942164179,20.514019793506144,5e-11,103.20082258724096
0.93763237872415,0.3457680088784151,0.03591665914792812,87.94168431468788,20.242316871093674,5.1e-11,103.1183810637925
0.939430810437216,0.34079409136587047,0.03645736813575991,87.91068366703826,19.939078851709773,5.2e-11,103.0284594781392
0.9420647171919525,0.33344350371039466,0.03646228812598961,87.91040158481185,19.491400894176934,5.3000000000000004e-11,102.89676414040237
0.9451187410904344,0.324574363316143,0.03744393031658324,87.85411918718532,18.953587969312707,5.4e-11,102.74406294547828
0.9473962667277726,0.3179241626631052,0.036939688483294736,87.88303011855749,18.550555472446096,5.5000000000000004e-11,102.63018666361137
0.9488208116831311,0.3134592447472905,0.03850154801332773,87.79347841837223,18.281859094343165,5.6e-11,102.55895941584345
0.9502961631079492,0.30876258271377294,0.04003585765573773,87.70550108466092,17.99959873321082,5.7000000000000003e-11,102.48519184460254
0.9522130800511691,0.3029850779596248,0.038604309516757654,87.78758623744068,17.650571653544368,5.8e-11,102.38934599744154
0.9544043423590008,0.29608679965976886,0.03801260782318145,87.82151315136873,17.23556432960282,5.9e-11,102.27978288204996
0.9566608370249823,0.2884821341015007,0.03972532198616139,87.72330763393774,16.78074320745678,6e-11,102.16695814875088
0.9591310008641214,0.2801702506323171,0.039652917194244706,87.72745939420155,16.283528705149045,6.1e-11,102.04344995679394
0.9603494940392913,0.2765117610310524,0.03563839656863605,87.95763779988074,16.06260500637971,6.2e-11,101.98252529803544
0.9623913866171218,0.2696605503766049,0.032954613269771955,88.11149781796647,15.652788284160478,6.3e-11,101.8804306691439
0.9637024902153701,0.26505300722733305,0.03200646360412266,88.16585147291991,15.378175995939642,6.4e-11,101.8148754892315
0.9650043758624015,0.2605700657441609,0.029492293985051134,88.30997096951234,15.110620160062172,6.500000000000001e-11,101.74978120687993
0.9665133835222607,0.2552065524107315,0.026860660434548895,88.4608123982696,14.791283311974919,6.6e-11,101.67433082388696
0.9677821063300213,0.25009290786142974,0.029177595940067767,88.32800960252963,14.489313850467473,6.7e-11,101.61089468349894
0.9689234098986885,0.24572484448568319,0.02840293211597239,88.3724129776395,14.230536019689072,6.8e-11,101.55382950506558
0.970985217067141,0.23752809136071779,0.027714870586226712,88.41185152820007,13.746076032036223,6.900000000000001e-11,101.45073914664295
0.9715575332124955,0.23543553298121514,0.025417896606563545,88.54350493879421,13.62178315009808,7e-11,101.42212333937522
0.972447297731169,0.231693314098445,0.025777147581267548,88.52291462721415,13.40132079660706,7.1e-11,101.37763511344156
0.9740110108332669,0.2245989008858817,0.029289665351647773,88.32158575271589,12.984961528931759,7.2e-11,101.29944945833665
0.9748973647814773,0.22089995144674177,0.027898738196525778,88.4013126148973,12.766950302392493,7.3e-11,101.25513176092613
0.9768732006816236,0.2116562026706045,0.030338122240839965,88.26148687927382,12.225141864650162,7.4e-11,101.15633996591882
0.9778363032845638,0.20678688074376092,0.03279252858570071,88.12078960834212,11.940637831146667,7.5e-11,101.10818483577181
0.9794377133398643,0.19925601471381632,0.031603896720901824,88.18892853143394,11.499278719191988,7.6e-11,101.02811433300678
0.9798631361598741,0.197259724724557,0.030932756044815123,88.22740087231931,11.382280285133739,7.7e-11,101.0068431920063
0.9816842575371413,0.18870157682528563,0.02622467173107181,88.49726471024115,10.880807214153162,7.8e-11,100.91578712314293
0.9813510877348007,0.1904414027380717,0.026117326143370593,88.5034172667378,10.982337857545641,7.9e-11,100.93244561325996
0.9822329057971646,0.18619571418799824,0.023445144215375358,88.65656909219376,10.733838581256895,8.000000000000001e-11,100.88835471014177
0.9826187541909962,0.18366649454602718,0.026962987470024305,88.45494736675593,10.587289637088752,8.1e-11,100.86906229045019
0.983328225046999,0.17919296774643856,0.030910874075997383,88.2286552165995,10.327745278540995,8.2e-11,100.83358874765005
0.9838104054177205,0.17654181210009917,0.030823282956777543,88.23367621056788,10.173279787716641,8.3e-11,100.80947972911397
0.9844580116268729,0.17349560678822593,0.027234128751423687,88.43940640847399,9.994868919587274,8.400000000000001e-11,100.77709941865636
0.9854761933422957,0.16766821883892308,0.026908005257936542,88.4580987588652,9.655801644990555,8.5e-11,100.72619033288521
0.9857710984882312,0.16566974749708657,0.028440748048487594,88.37024540864884,9.540038839260868,8.6e-11,100.71144507558844
0.9870693929445523,0.15861085408784759,0.023164854361649823,88.6726328808042,9.12874497396432,8.7e-11,100.64653035277239
0.9875687814290256,0.15552238786286549,0.0228186068860902,88.6924766455157,8.949443654582312,8.8e-11,100.62156092854872
0.9879114757508609,0.15283865392746854,0.0259087233455443,88.5153733725678,8.79444229443069,8.9e-11,100.60442621245696
0.9888511019705977,0.14642958628870373,0.02705317709352541,88.44977799626396,8.423177445577403,9e-11,100.55744490147012
0.9892760743959225,0.14333193936078753,0.02808565090697841,88.39059910725896,8.243972098602752,9.100000000000001e-11,100.53619628020388
0.9904309913437458,0.13475569474817858,0.02978848970291683,88.2929927451342,7.747952592164027,9.2e-11,100.4784504328127
0.9913467519502815,0.12759647111632455,0.030834363237919212,88.23304105531993,7.334230084468824,9.3e-11,100.43266240248592
0.9923325866067936,0.12047783722375144,0.027588553716308438,88.41909172024945,6.9223284954285065,9.4e-11,100.38337066966032
0.9925277694394758,0.1199007651226593,0.022636992169886478,88.70288509086939,6.888149124260821,9.500000000000001e-11,100.3736115280262
0.9929099528727287,0.11641585932310518,0.024024428907652075,88.6233691709839,6.687235316301127,9.6e-11,100.35450235636357
0.993246784805605,0.11396572944008389,0.02174021588020084,88.75427924226636,6.545527287329528,9.7e-11,100.33766075971975
0.9933113274564909,0.11365711442797143,0.020363376108375866,88.83318384283345,6.5275349319073,9.8e-11,100.33443362717546
0.9934172551394923,0.11297862938985438,0.01892053097316804,88.91586873847092,6.48821561841243,9.900000000000001e-11,100.32913724302539
0.9940068528817029,0.10821971280358637,0.0154554257437947,89.11443407603365,6.213445036580562,1e-10,100.29965735591486
0.9947466659541973,0.10079153985842006,0.017892346575488372,88.97478934952593,5.7856820090527945,1.01e-10,100.26266670229013
0.9951322422494109,0.09670762625079819,0.01895931065719137,88.9136464276153,5.550613017613889,1.02e-10,100.24338788752945
0.9955573143598019,0.09212892622984772,0.019439515848752278,88.8861276241505,5.287096459982011,1.03e-10,100.2221342820099
0.9956749336725507,0.09117764319752111,0.017834344313919302,88.97811316467205,5.232194125034771,1.04e-10,100.21625331637247
0.9957939954065729,0.08976834419476325,0.018329296024256394,88.94974988321913,5.151147955820451,1.05e-10,100.21030022967136
0.9957452474611099,0.09089541248922063,0.015146819700103443,89.13211797017597,5.215721600275641,1.0600000000000001e-10,100.2127376269445
0.996284091663536,0.08447736920465598,0.016780428791394738,89.03850712492495,4.846656284955658,1.07e-10,100.1857954168232
0.9965931216118665,0.08142981881407531,0.013089482947089857,89.25000645344734,4.671157567493084,1.08e-10,100.17034391940668
0.9969053745517112,0.07771317601384523,0.011846369222396005,89.32123716450906,4.457444466623852,1.09e-10,100.15473127241444
0.9973188771959927,0.07245529263966913,0.010260982264119431,89.41207870548051,4.155242517747157,1.1000000000000001e-10,100.13405614020037
0.9974542669763352,0.07077822997018103,0.008684897983856512,89.50238574426034,4.058840719290671,1.11e-10,100.12728665118324
0.9975839899043666,0.06920766946766259,0.006039997792995966,89.6539315139841,3.9685521585722587,1.12e-10,100.12080050478167
0.9978171050808675,0.06486931346602366,0.01236919473870282,89.2912792726918,3.7196344770756595,1.13e-10,100.10914474595663
0.9980037869128118,0.06266633519317853,0.007834011816642677,89.55113959494683,3.5929811216788328,1.1400000000000001e-10,100.09981065435942
0.9981527324216267,0.06020601833334849,0.008146049084375499,89.53326060567069,3.45175279321549,1.15e-10,100.09236337891866
0.99815106855357,0.06055503470063334,0.005247105656574702,89.69936161167304,3.4717196952813976,1.16e-10,100.09244657232149
0.9983375930826296,0.05751876931659088,0.0036934285273486954,89.78838165231892,3.2974251402412853,1.17e-10,100.08312034586852
0.9982162511136456,0.05970173005837563,0.00013942975321800435,89.99201126357617,3.422692500903994,1.18e-10,100.08918744431772
0.998245822246465,0.059200208297530116,-0.0007833932654551041,90.0448851324006,3.3939075138102432,1.19e-10,100.08770888767675
0.9978718746879424,0.06509882239805283,-0.0037235774677383243,90.2133457666009,3.7325531790941278,1.2e-10,100.10640626560289
0.9978900800354668,0.06488140107625127,-0.0024066493704780123,90.13789098480629,3.7200543388783247,1.21e-10,100.10549599822666
0.9979431982635059,0.06409842292749196,-0.0008747672910675417,90.05012048022644,3.6750900339940786,1.22e-10,100.10284008682471
0.9979894177619378,0.06336461407781686,0.001430984960632276,89.91801057322719,3.6329625530703757,1.2300000000000001e-10,100.10052911190311
0.9979839358145335,0.0634573141258553,-0.0011104683992875521,90.06362516563829,3.638283106817446,1.24e-10,100.10080320927332
0.9977546319538587,0.06694176944227585,-0.0021198864490563065,90.12146063755038,3.8383598849001284,1.25e-10,100.11226840230707
0.9978075905391224,0.06615430228037766,-0.0019027748966821123,90.10902103672946,3.793139337951792,1.26e-10,100.10962047304388
0.9976935549252888,0.06770848964732196,-0.004809458412161318,90.27556273110271,3.8824259508546817,1.27e-10,100.11532225373556
0.9976822831983737,0.06777934786275477,-0.006001816006815981,90.3438807911596,3.886520312417964,1.28e-10,100.11588584008132
0.9975453873579433,0.0699019309023741,-0.004113419138713367,90.23568222065218,4.0083884418437385,1.29e-10,100.12273063210283
0.9977242678907129,0.06700716919544722,-0.007504967578454832,90.43000700435007,3.8422151790762604,1.3000000000000002e-10,100.11378660546436
0.99761870974817,0.06789426878690394,-0.012135824087733898,90.69534857013666,3.893337045783675,1.31e-10,100.11906451259149
0.9975441515706609,0.06927943713780317,-0.010296856658206914,90.58997685448757,3.9728124833879472,1.32e-10,100.12279242146695
0.9975118143259478,0.06932191798757874,-0.012831678248738742,90.73522118459954,3.975369185427964,1.33e-10,100.1244092837026
0.9970921370471499,0.07431605240551771,-0.01686400289396728,90.96628199610777,4.262532607372853,1.34e-10,100.14539314764251
0.9969486306714581,0.07662454911305967,-0.014903230372127077,90.85392381372984,4.395059841464228,1.35e-10,100.1525684664271
0.9969556723475649,0.07718205256643312,-0.011059752965016411,90.63369008643214,4.426879534354514,1.36e-10,100.15221638262176
0.9972441133710328,0.07352213659083018,-0.00993346756887275,90.56915512800263,4.216520922290621,1.37e-10,100.13779433144836
0.9971744829888091,0.0748048590927975,-0.00687630221178992,90.39398620027683,4.290111674555493,1.3800000000000001e-10,100.14127585055955
0.9971508800299798,0.07532397755613253,-0.004052266101847407,90.23217838053087,4.319873043032578,1.39e-10,100.142455998501
0.9971087736192207,0.07593713385877575,-0.0027650086597111297,90.15842352838419,4.355086364673312,1.4e-10,100.14456131903897
0.9972493157755833,0.07374427086207958,-0.007455514747551783,90.42717348657962,4.2291922656334195,1.41e-10,100.13753421122084
0.9972622280563379,0.07368833853230002,-0.006170677147435171,90.35355600105049,4.22594168462256,1.42e-10,100.1368885971831
0.9969994073663914,0.0769136141287988,-0.008745151382958975,90.50106665232019,4.411351018811271,1.43e-10,100.15002963168043
0.9973189055186006,0.07299144549427876,-0.005220113009945447,90.29909180241602,4.185881365586967,1.44e-10,100.13405472406997
0.9975745820997711,0.06950007556039779,-0.0038330986898149986,90.21962091518782,3.985303050321972,1.4500000000000002e-10,100.12127089501145
0.9976038712267272,0.06915434824320452,-0.0020474942014698724,90.11731285828897,3.9654255594177767,1.46e-10,100.11980643866364
0.9974956253032791,0.07069533969341532,-0.0021555617488604106,90.12350468633265,4.0539356300619005,1.47e-10,100.12521873483605
0.9974937610518798,0.07062405665061404,-0.00429409883286348,90.24603449605577,4.04986914526054,1.48e-10,100.125311947406
0.9975493034838968,0.06988379724697202,-0.0034120376809840714,90.19549573798817,4.00733631077481,1.49e-10,100.12253482580516
0.9975978757661075,0.06911419071837407,-0.004659067320217959,90.2669458596833,3.9631539419886295,1.5e-10,100.12010621169463
0.9975445752741837,0.06949038293962032,-0.008712463483603921,90.49919370229256,3.984868520331494,1.51e-10,100.12277123629082
0.9975809146810376,0.06913974196679551,-0.00721212485396616,90.41322789783041,3.964681625410916,1.52e-10,100.12095426594811
0.9976073793998825,0.06873004186944592,-0.007463103343997771,90.42760829322516,3.9411582194943646,1.5300000000000001e-10,100.11963103000588
0.9974860371106825,0.07074972621540931,-0.004010238106497205,90.22977033420909,4.057082814328522,1.54e-10,100.12569814446587
0.997698488262997,0.06739556126258656,-0.0074541827071424,90.42709716416519,3.864517985093304,1.55e-10,100.11507558685015
0.9977183757339209,0.06737714345154107,-0.00428523782039176,90.2455267927677,3.8633883140994048,1.56e-10,100.11408121330396
0.9976664592013031,0.06822295765145796,-0.002695224298965514,90.15442516413563,3.9119403747563393,1.57e-10,100.11667703993484
0.9975490794559835,0.06995480375158493,-0.001469526657519939,90.08419770566216,4.011395638493569,1.58e-10,100.12254602720083
0.9975000496691379,0.07065098929480972,0.0014452064669635823,89.91719574009349,4.051382973557004,1.59e-10,100.1249975165431
